Energy	Efficiency(PM)	theta(PM)
500	0.01801424793	74.54655129
502	0.01656146393	74.61082334
504	0.01512380918	74.67462958
506	0.01430536118	74.73933131
508	0.01290231999	74.79822969
510	0.01134231332	74.86100831
512	0.009792708191	74.92385132
514	0.008938193162	74.9825574
516	0.007719044612	75.04371053
518	0.006489866244	75.1006124
520	0.005115687143	75.15767779
522	0.004165151627	75.21393791
524	0.003316695066	75.27140868
526	0.002378983153	75.31929016
528	0.001749094269	75.37021599
530	0.001156886337	75.4136307
532	8.129343617E-4	75.46460156
534	7.02989329E-4	75.53879946
536	9.182012295E-4	75.64123181
538	0.001686306698	75.72815176
540	0.00275060691	75.7914867
542	0.004205287153	75.85255496
544	0.006809895499	75.91071597
546	0.01025471328	75.96868308
548	0.01470091801	76.02655992
550	0.02033823887	76.08442912
552	0.02617724566	76.14123963
554	0.03756274122	76.19762771
556	0.05002918099	76.25710807
558	0.06424639153	76.31637373
560	0.07986228424	76.37529036
562	0.1088107338	76.4405448
564	0.1501817144	76.51079071
566	0.193011707	76.58072043
568	0.2356095887	76.65433845
570	0.2821401322	76.72667923
572	0.4975172447	76.94906532
574	0.3089318955	76.9619893
576	0.1986860573	76.90425464
578	0.1390695373	76.87073431
580	0.1088272935	76.86544558
582	0.1038138563	76.89467144
584	0.09910728999	76.92884022
586	0.0950469653	76.96274025
588	0.09167582374	76.99637484
590	0.09004977851	77.0372588
592	0.08885942462	77.07644701
594	0.08803955212	77.11138847
596	0.08728663787	77.14958384
598	0.08685232861	77.18789154
600	0.08668872475	77.22917258
602	0.08661970003	77.2667989
604	0.08648652154	77.30802853
606	0.08661997703	77.34454443
608	0.08681025042	77.38521631
610	0.08699609154	77.42244262
612	0.08728106255	77.46437892
614	0.08762524537	77.50229397
616	0.08806542367	77.53953407
618	0.08834105617	77.579184
620	0.08878195032	77.61774043
622	0.08928296865	77.65526235
624	0.08969626239	77.69289939
626	0.09013459857	77.73334596
628	0.09063978363	77.77000613
630	0.09107572259	77.80843474
632	0.09162271024	77.84579613
634	0.091758144	77.88228403
636	0.0924467951	77.91923852
638	0.09319005646	77.95988103
640	0.09341409781	77.99577319
642	0.09391428238	78.03302823
644	0.09486198618	78.06897591
646	0.09541149936	78.10520741
648	0.09574712147	78.14075845
650	0.09666190446	78.17603135
652	0.09742460053	78.21205273
654	0.0976894658	78.25048859
656	0.09855769054	78.28625474
658	0.0991127927	78.32152038
660	0.09966618908	78.35543097
662	0.1003165641	78.3905731
664	0.1006034645	78.42569638
666	0.1012684719	78.45966974
668	0.1019973981	78.49420903
670	0.1024739222	78.52679449
672	0.1032294365	78.56143862
674	0.1039194063	78.59606615
676	0.1044591193	78.62805688
678	0.105568424	78.66162559
680	0.1060305682	78.69322534
682	0.1069893554	78.73041628
684	0.1079164205	78.76324412
686	0.1084368366	78.79445234
688	0.1094750063	78.82709222
690	0.1101154317	78.85774759
692	0.1111180655	78.89002695
694	0.1118219889	78.92106754
696	0.1126005164	78.952172
698	0.1134796898	78.98309061
700	0.1143644644	79.01782863
702	0.1151838019	79.04837817
704	0.116015861	79.07874902
706	0.1168602137	79.1089437
708	0.1178815426	79.1389555
710	0.1187431844	79.16879431
712	0.1196184083	79.19846216
714	0.1205086789	79.22796226
716	0.121553208	79.25729387
718	0.1224621579	79.28645798
720	0.1233820181	79.31945441
722	0.1250139754	79.34703143
724	0.1260354918	79.37569746
726	0.1269897704	79.40420161
728	0.1279587025	79.43254564
730	0.1296073113	79.45946107
732	0.1306000219	79.48748053
734	0.1316073816	79.51534395
736	0.132634876	79.54705173
738	0.1343991004	79.57332407
740	0.1354572925	79.60072156
742	0.1365252243	79.62796581
744	0.1375990146	79.65505659
746	0.1386882665	79.68199892
748	0.139798653	79.70879239
750	0.1409134616	79.735437
752	0.1420473261	79.76193697
754	0.1423654628	79.78959749
756	0.1435136184	79.81980861
758	0.1446917923	79.84587857
760	0.145905067	79.8718071
762	0.1471363604	79.89759373
764	0.1481418513	79.92348589
766	0.1486581636	79.95007881
768	0.1499322399	79.97545145
770	0.1512048621	80.00068941
772	0.1524896613	80.0257934
774	0.152777543	80.05209922
776	0.1540905092	80.07693794
778	0.1554081755	80.10164605
780	0.1556518827	80.12756788
782	0.1570205294	80.15201538
784	0.1584159456	80.17633531
786	0.1594342941	80.20073952
788	0.1599442551	80.22595073
790	0.1612594035	80.24989326
792	0.1626741197	80.27770889
794	0.1629817914	80.30276993
796	0.1644289367	80.3263416
798	0.1658963384	80.34979116
800	0.166202393	80.37449864
802	0.1676941831	80.39770963
804	0.1682934299	80.42174271
806	0.1694057032	80.44516219
808	0.1707205194	80.46801862
810	0.1710444598	80.4921569
812	0.1725963573	80.5147831
814	0.1741744162	80.53729482
816	0.1745018453	80.56110053
818	0.1756909156	80.58338817
820	0.1773102774	80.60556199
822	0.1776468741	80.62904194
824	0.1793122512	80.65099852
826	0.1809893845	80.67284169
828	0.1808268119	80.69600353
830	0.182530146	80.71763505
832	0.1842581016	80.73915603
834	0.1846163796	80.76200651
836	0.1860984101	80.78331945
838	0.1877621929	80.80452637
840	0.188028281	80.82707295
842	0.1897495676	80.84807448
844	0.1911168254	80.86934873
846	0.1917699599	80.89122381
848	0.1935441738	80.91192057
850	0.1938228237	80.93398001
852	0.1956144403	80.95447889
854	0.1973426217	80.97894585
856	0.1976537786	80.99665042
858	0.1994925296	81.02085742
860	0.1997214135	81.03844226
862	0.2015858853	81.06245647
864	0.2018216481	81.07986113
866	0.2036952413	81.10368701
868	0.2038845009	81.12090946
870	0.2057688782	81.14455069
872	0.205963145	81.16159782
874	0.2078687972	81.18505393
876	0.2084904544	81.20155149
878	0.2100024917	81.22120284
880	0.2112248714	81.24100227
882	0.2120910921	81.26100029
884	0.2140589568	81.28401112
886	0.2141891735	81.30045528
888	0.2151821411	81.32010003
890	0.2162998184	81.33956491
892	0.2183049975	81.36223904
894	0.2184147815	81.37834211
896	0.2195572809	81.39748701
898	0.220413843	81.41678702
900	0.2208705779	81.43632636
902	0.2224340359	81.45490709
904	0.2242680467	81.47320332
906	0.2244649229	81.49270255
908	0.225817554	81.51122574
910	0.226448038	81.53018191
912	0.2273587329	81.54884812
914	0.2283939302	81.56734921
916	0.230419054	81.58503178
918	0.2303460028	81.60420605
920	0.2323918254	81.62173116
922	0.2323134898	81.6407596
924	0.2343510813	81.65813088
926	0.2342124291	81.67701125
928	0.2362632715	81.69423146
930	0.2361162746	81.71296991
932	0.2381850175	81.73003861
934	0.2380161759	81.74863243
936	0.2401111387	81.76555442
938	0.2399202082	81.78400993
940	0.241989661	81.80078467
942	0.2417454507	81.81910029
944	0.2438395302	81.83573267
946	0.2458159989	81.85238512
948	0.2456918789	81.87040164
950	0.247819635	81.88681914
952	0.2475487979	81.90479681
954	0.2496962767	81.92107565
956	0.2493868343	81.93891917
958	0.2515437286	81.95505974
960	0.2512235997	81.97277542
962	0.2534029787	81.98878048
964	0.254671197	82.00531661
966	0.2552563588	82.02223612
968	0.257475237	82.03803988
970	0.2570844564	82.05543525
972	0.2592834625	82.07110555
974	0.2588661039	82.08837734
976	0.2610937771	82.10391989
978	0.2606530885	82.12106872
980	0.2628939177	82.13648069
982	0.2631297039	82.15307903
984	0.2646910895	82.16879618
986	0.2668122314	82.18408773
988	0.2663884049	82.20086631
990	0.2686409605	82.21596499
992	0.2680862044	82.23269835
994	0.2703558054	82.24767346
996	0.269766561	82.26428878
998	0.272058578	82.27914301
1000	0.2736313389	82.29435757
1002	0.2736683415	82.31038114
1004	0.2759113197	82.32505432
1006	0.2751995585	82.34138781
1008	0.2774679838	82.35594539
1010	0.2767262345	82.37216896
1012	0.2790043226	82.38660829
1014	0.2783867838	82.40263425
1016	0.2805188498	82.41704955
1018	0.2827701857	82.43131727
1020	0.2818943405	82.44726848
1022	0.2841508826	82.461423
1024	0.2832703089	82.473271
1026	0.2855248559	82.49131503
1028	0.2872619164	82.50559735
1030	0.2868935957	82.51698965
1032	0.289170439	82.53486743
1034	0.2882420843	82.54645679
1036	0.2904753805	82.56022507
1038	0.292131061	82.57426698
1040	0.2917688541	82.5893757
1042	0.2940374425	82.60298548
1044	0.2930458543	82.61832272
1046	0.2953235852	82.63182651
1048	0.2943940256	82.64701692
1050	0.2965767282	82.66046981
1052	0.298843376	82.67381794
1054	0.2977443788	82.68891259
1056	0.3000246168	82.70215897
1058	0.3004906209	82.71632134
1060	0.3011916051	82.73030821
1062	0.3034924709	82.74340274
1064	0.3023215292	82.75826406
1066	0.3046346291	82.77126158
1068	0.3069297769	82.78420976
1070	0.3056692461	82.79893155
1072	0.3079593492	82.81178032
1074	0.3081458735	82.82566082
1076	0.3089722512	82.83916869
1078	0.311286919	82.85187311
1080	0.3099442226	82.86637164
1082	0.3122736819	82.87898244
1084	0.3145897427	82.89154554
1086	0.3131691623	82.90591407
1088	0.3154653813	82.91838306
1090	0.3173481275	82.93101609
1092	0.3163031145	82.94504438
1094	0.3186315209	82.95737721
1096	0.3188359284	82.970696
1098	0.3194404332	82.98377383
1100	0.3217838552	82.99597012
1102	0.3204930773	83.00985561
1104	0.3225015758	83.0221098
1106	0.3248123661	83.03417106
1108	0.3231458441	83.04807796
1110	0.3254771561	83.06005391
1112	0.3278177076	83.07198575
1114	0.3260987736	83.08577142
1116	0.3284432126	83.09761603
1118	0.3307936181	83.10941717
1120	0.3289943054	83.12308589
1122	0.331318526	83.13480378
1124	0.3336373967	83.1464779
1126	0.3317692825	83.16002973
1128	0.3341083404	83.17162244
1130	0.3364557053	83.18317335
1132	0.3345574231	83.19261028
1134	0.3368793486	83.20807765
1136	0.3392392587	83.21950389
1138	0.3373012382	83.22882975
1140	0.3395859177	83.24017691
1142	0.3418801269	83.25548131
1144	0.3399205319	83.26469555
1146	0.3422159314	83.27592253
1148	0.344520182	83.28710966
1150	0.3425234076	83.30021628
1152	0.3448293299	83.31132425
1154	0.3471436322	83.32239314
1156	0.3450581161	83.33539328
1158	0.3472413749	83.34643517
1160	0.348260965	83.35795302
1162	0.3491541368	83.36948896
1164	0.3500509701	83.38098659
1166	0.3509560332	83.39244636
1168	0.3518640673	83.40386755
1170	0.3527640193	83.4152487
1172	0.3536678373	83.42659196
1174	0.3545683827	83.43789618
1176	0.3554500101	83.44916034
1178	0.3563326332	83.46038668
1180	0.357207447	83.47157459
1182	0.3580883733	83.48272573
1184	0.3589742688	83.4938404
1186	0.3598667578	83.50491918
1188	0.3607558253	83.51595996
1190	0.3616405131	83.52696331
1192	0.3625320163	83.5379313
1194	0.3633993965	83.5488595
1196	0.364267591	83.55975205
1198	0.3651295393	83.57060756
1200	0.3659889917	83.58142723
1202	0.3668552677	83.59221207
1204	0.3677256192	83.60296224
1206	0.3686010329	83.61367799
1208	0.3694704424	83.62435764
1210	0.3703407835	83.63500211
1212	0.3712073595	83.64561151
1214	0.3720574111	83.65618343
1216	0.3729125543	83.66672119
1218	0.3737573252	83.67722366
1220	0.3746046777	83.68769258
1222	0.3754578267	83.6981284
1224	0.3763145952	83.70853143
1226	0.377176639	83.71890152
1228	0.3780297818	83.72923643
1230	0.3788856499	83.73953799
1232	0.3797339683	83.74980519
1234	0.3805733314	83.76003688
1236	0.3814152274	83.77023652
1238	0.3822500702	83.78040275
1240	0.3830959947	83.78653654
1242	0.3839582907	83.79663936
1244	0.3848260335	83.80671045
1246	0.3856955516	83.8167502
1248	0.3865606124	83.82675751
1250	0.387426605	83.83673318
1252	0.3882863657	83.84667604
1254	0.3891339057	83.8565854
1256	0.3899853033	83.86646435
1258	0.3908318375	83.87631071
1260	0.3916770515	83.88612613
1262	0.392529662	83.89591158
1264	0.3933849975	83.90566718
1266	0.3942451876	83.9153931
1268	0.3950994658	83.92508777
1270	0.3959568446	83.9347524
1272	0.3968059125	83.94438624
1274	0.3976408885	83.95398808
1276	0.3984794107	83.96356114
1278	0.3993180284	83.97310432
1280	0.4001540007	83.98261781
1282	0.4009936452	83.99210252
1284	0.4018372814	84.00155912
1286	0.4026865586	84.01098734
1288	0.4035346534	84.02038608
1290	0.4043736033	84.0297547
1292	0.405216376	84.03909527
1294	0.4060301713	84.0484034
1296	0.4068500238	84.05768441
1298	0.4076709185	84.06693707
1300	0.408484025	84.07616092
1302	0.4093013007	84.08535729
1304	0.4101223556	84.09452649
1306	0.4109476247	84.10366873
1308	0.4117777766	84.11278386
1310	0.412600904	84.12187126
1312	0.4134197981	84.13093083
1314	0.4142271191	84.13996102
1316	0.415025085	84.14896304
1318	0.4158278233	84.15793868
1320	0.4166282706	84.16688731
1322	0.417422569	84.17580801
1324	0.4182195463	84.18470279
1326	0.4190239914	84.1935717
1328	0.4198292835	84.20241511
1330	0.4206376808	84.21123216
1332	0.4214356224	84.22002211
1334	0.4222326019	84.22878565
1336	0.4230116765	84.23751989
1338	0.4237897381	84.24622798
1340	0.4245725543	84.25491124
1342	0.4253513577	84.26356878
1344	0.4261275698	84.27220088
1346	0.4269089707	84.28080854
1348	0.4276937393	84.28939132
1350	0.4284811308	84.29794971
1352	0.4292886743	84.30248331
1354	0.4300906218	84.31099049
1356	0.43088827	84.31947215
1358	0.4316696286	84.3279261
1360	0.4324502383	84.33635608
1362	0.4332365502	84.34476202
1364	0.4340156744	84.35314311
1366	0.4347954226	84.36149943
1368	0.4355784255	84.36983244
1370	0.4363651015	84.37814223
1372	0.4371555477	84.38642846
1374	0.4379478877	84.39469166
1376	0.4387327429	84.40293014
1378	0.4395115617	84.41114425
1380	0.4402736042	84.41933136
1382	0.4410367037	84.42749529
1384	0.4418061098	84.43563687
1386	0.4425688924	84.44375454
1388	0.4433300988	84.45184792
1390	0.4440935493	84.4599191
1392	0.4448609494	84.46796809
1394	0.4456308751	84.47599461
1396	0.4464046761	84.48399935
1398	0.4471700042	84.49198036
1400	0.4479291365	84.49993803
1402	0.4486735285	84.50787047
1404	0.4494163394	84.51578039
1406	0.4501639784	84.52366869
1408	0.4509116257	84.53153472
1410	0.4516515173	84.53937792
1412	0.452394819	84.5471996
1414	0.4531415685	84.55500002
1416	0.4538917683	84.56277928
1418	0.4546473216	84.57053747
1420	0.4553962171	84.57827398
1422	0.4561403197	84.58598845
1424	0.4568677551	84.59367769
1426	0.4575909013	84.60134482
1428	0.4583190689	84.60899119
1430	0.4590492565	84.61661704
1432	0.4597754299	84.624221
1434	0.4604983136	84.63180385
1436	0.4612254154	84.63936622
1438	0.4619546715	84.64690842
1440	0.4626870733	84.65443067
1442	0.4634221144	84.66193255
1444	0.4641504973	84.66941311
1446	0.4648687406	84.67687143
1448	0.4655771629	84.68430614
1450	0.4662893799	84.69172091
1452	0.4670021739	84.69911595
1454	0.4677176416	84.70649115
1456	0.4684291546	84.7138457
1458	0.4691390723	84.72118064
1460	0.469851478	84.72849595
1462	0.4705685642	84.73579212
1464	0.4712881446	84.74306928
1466	0.4720094075	84.75032731
1468	0.4727201296	84.75756471
1470	0.4734220639	84.76477956
1472	0.4741182273	84.77197324
1474	0.4748396724	84.77514781
1476	0.4755653509	84.78230368
1478	0.4762955229	84.78944108
1480	0.4770141458	84.79655736
1482	0.4777368258	84.80365557
1484	0.4784639014	84.81073511
1486	0.4791919991	84.81779639
1488	0.4799247515	84.82483947
1490	0.4806583221	84.83186435
1492	0.4813835177	84.83886958
1494	0.4821016277	84.84585442
1496	0.4828230757	84.85281942
1498	0.4835458658	84.85976669
1500	0.4842694949	84.86669594
1502	0.4849983377	84.87360728
1504	0.4857202187	84.88049972
1506	0.4864446737	84.88737431
1508	0.4871710766	84.89423141
1510	0.4879002241	84.90107096
1512	0.4886335038	84.90789301
1514	0.4893668063	84.91469782
1516	0.4900940657	84.92148469
1518	0.4908010521	84.92825186
1520	0.4914999961	84.93500019
1522	0.4922016702	84.94173193
1524	0.4929035412	84.94844615
1526	0.4936093309	84.95514393
1528	0.4943134481	84.9618237
1530	0.4950138837	84.96848583
1532	0.4957173768	84.97513108
1534	0.4964229958	84.98175993
1536	0.4971308693	84.9883722
1538	0.4978428361	84.99496807
1540	0.4985498413	85.0015464
1542	0.4992394851	85.00810586
1544	0.4999118631	85.0146459
1546	0.5005875035	85.02116989
1548	0.5012664985	85.02767749
1550	0.501947908	85.03416923
1552	0.5026279857	85.04064461
1554	0.5033039145	85.04710293
1556	0.5039824552	85.05354521
1558	0.5046664667	85.05997172
1560	0.5053487738	85.0663824
1562	0.506034394	85.07277733
1564	0.5067203805	85.0791564
1566	0.5073973769	85.08551837
1568	0.5080548016	85.09186138
1570	0.5087071807	85.09818797
1572	0.5093617808	85.10449926
1574	0.5100178595	85.11079495
1576	0.5106783504	85.11707549
1578	0.5113332264	85.12333976
1580	0.511987549	85.12958756
1582	0.5126442125	85.13582045
1584	0.5133007113	85.14203765
1586	0.5139614895	85.14824045
1588	0.5146229841	85.15442831
1590	0.5152874878	85.16060079
1592	0.5159324499	85.16675603
1594	0.5165601751	85.17289302
1596	0.5171893527	85.17901499
1598	0.5178193181	85.18512217
1600	0.5184522906	85.19121509
1602	0.5190888988	85.19729315
1604	0.519721709	85.20335611
1606	0.5203581854	85.20540359
1608	0.5210188862	85.21143692
1610	0.5216819439	85.21745588
1612	0.5223483474	85.22346028
1614	0.5230159534	85.22945069
1616	0.5236876267	85.23542623
1618	0.5243291299	85.24134561
1620	0.5249280082	85.24711457
1622	0.5255292487	85.25286908
1624	0.5261467139	85.26260964
1626	0.5268071068	85.26833641
1628	0.5274690171	85.27404925
1630	0.5281257871	85.27974763
1632	0.5287788377	85.28543121
1634	0.529430741	85.29110058
1636	0.5300831709	85.29675631
1638	0.5307405841	85.30239867
1640	0.5313934718	85.30802757
1642	0.5320481984	85.31364277
1644	0.5326858447	85.31924182
1646	0.5333036492	85.3248246
1648	0.5339207204	85.33039346
1650	0.5345382474	85.33594926
1652	0.535157606	85.3414917
1654	0.5357747957	85.34702077
1656	0.5363933962	85.3525368
1658	0.537004375	85.35803877
1660	0.5376188167	85.3635277
1662	0.5382323449	85.36900362
1664	0.5388461028	85.37446659
1666	0.5394618968	85.37991666
1668	0.5400775454	85.38535386
1670	0.5406817704	85.39077637
1672	0.5412675914	85.39618323
1674	0.5418428599	85.40157573
1676	0.5424220562	85.40695553
1678	0.5430000234	85.41232306
1680	0.5435798766	85.41767785
1682	0.5441584349	85.42301966
1684	0.5447361221	85.42834915
1686	0.5453061286	85.4336651
1688	0.545881229	85.43896877
1690	0.5464559445	85.44426028
1692	0.5470484434	85.45353952
1694	0.5476877329	85.45880613
1696	0.5483232373	85.46406013
1698	0.5489456764	85.46929965
1700	0.5495486491	85.47452306
1702	0.5501538723	85.47973466
1704	0.5507562855	85.48493408
1706	0.5513608488	85.49012125
1708	0.5519623946	85.49529665
1710	0.5525666538	85.50045998
1712	0.5531650158	85.50561047
1714	0.5537592214	85.51074845
1716	0.5543550697	85.5158746
1718	0.5549501817	85.52098879
1720	0.5555462217	85.52609179
1722	0.5561418921	85.53118253
1724	0.5567384367	85.53626171
1726	0.5573156356	85.54132582
1728	0.5578860086	85.54637667
1730	0.5584562794	85.55141608
1732	0.5590258551	85.55644375
1734	0.5595953603	85.56146
1736	0.5601665366	85.5664652
1738	0.5607365275	85.57145875
1740	0.5613029459	85.57644008
1742	0.5618659321	85.5814099
1744	0.5624305165	85.58636873
1746	0.5629933929	85.59131608
1748	0.5635566434	85.59625228
1750	0.5641193421	85.60117735
1752	0.5646818171	85.60609066
1754	0.565224073	85.61099047
1756	0.5657518979	85.615877
1758	0.5662797969	85.62075232
1760	0.5668491548	85.6296167
1762	0.5674466468	85.63446997
1764	0.5680428498	85.63931276
1766	0.5686388899	85.64414475
1768	0.5692327779	85.64896558
1770	0.5698220018	85.65377514
1772	0.5704138879	85.65857434
1774	0.5710031131	85.66336286
1776	0.5715935113	85.66814053
1778	0.5721833538	85.67290758
1780	0.5727709539	85.6776639
1782	0.5733424507	85.68240677
1784	0.5738981967	85.68713696
1786	0.5744528291	85.69185618
1788	0.5750042844	85.69656498
1790	0.5755567081	85.70126355
1792	0.576110505	85.70595146
1794	0.5766614917	85.71062937
1796	0.5772114999	85.71529658
1798	0.5777573201	85.71995329
1800	0.5783043891	85.72459978
1802	0.5788503137	85.72923609
1804	0.5793942193	85.73386195
