 Pd 30.nm on Si at 1.2deg, P=0.
 Photon Energy (eV), Reflectivity, Transmission into substrate
   40.0000  0.932536  1.214710E-06
   48.9379  0.933850  3.854780E-07
   57.8758  0.935167  1.429623E-07
   66.8136  0.940526  5.008880E-08
   75.7515  0.949372  1.680305E-08
   84.6894  0.961946  1.065126E-08
   93.6273  0.970595  5.776144E-08
   102.565  0.977379  1.979515E-07
   111.503  0.983163  3.579957E-07
   120.441  0.987079  6.111948E-07
   129.379  0.988354  9.729565E-07
   138.317  0.986451  1.383638E-06
   147.255  0.981646  1.994931E-06
   156.192  0.975660  2.430940E-06
   165.130  0.969018  2.871410E-06
   174.068  0.963330  2.772853E-06
   183.006  0.957415  2.984450E-06
   191.944  0.951291  3.217750E-06
   200.882  0.944815  3.409664E-06
   209.820  0.938649  3.558535E-06
   218.758  0.932529  3.731744E-06
   227.695  0.926151  3.863011E-06
   236.633  0.920465  3.972425E-06
   245.571  0.914722  4.177088E-06
   254.509  0.908872  4.387896E-06
   263.447  0.903744  4.709138E-06
   272.385  0.898282  5.208342E-06
   281.323  0.892118  6.009400E-06
   290.261  0.884348  7.228097E-06
   299.198  0.874426  9.106830E-06
   308.136  0.861031  1.217668E-05
   317.074  0.840653  1.725226E-05
   326.012  0.812733  2.582208E-05
   334.950  0.772834  4.053985E-05
   343.888  0.714910  7.279772E-05
   352.826  0.622369  1.413658E-04
   361.764  0.541420  1.881537E-04
   370.701  0.526716  1.244533E-04
   379.639  0.552739  4.858841E-05
   388.577  0.577885  1.916087E-05
   397.515  0.598285  8.475225E-06
   406.453  0.615955  4.069821E-06
   415.391  0.629751  2.219617E-06
   424.329  0.638302  1.435891E-06
   433.267  0.644649  9.772128E-07
   442.204  0.649518  6.971994E-07
   451.142  0.653452  5.092244E-07
   460.080  0.656992  3.753401E-07
   469.018  0.661158  2.728495E-07
   477.956  0.664836  2.058637E-07
   486.894  0.667428  1.605410E-07
   495.832  0.669708  1.263837E-07
   504.770  0.671892  9.989343E-08
   513.707  0.674063  7.933888E-08
   522.645  0.676147  6.345622E-08
   531.583  0.678266  5.077093E-08
   540.521  0.680742  4.027713E-08
   549.459  0.683925  3.190530E-08
   558.397  0.687001  2.594996E-08
   567.335  0.689436  2.164994E-08
   576.273  0.691547  1.825458E-08
   585.210  0.693882  1.530820E-08
   594.148  0.696514  1.291983E-08
   603.086  0.698939  1.115455E-08
   612.024  0.700896  9.829495E-09
   620.962  0.702498  8.765578E-09
   629.900  0.703816  7.894280E-09
   638.838  0.704823  7.174930E-09
   647.776  0.705596  6.495454E-09
   656.713  0.706504  5.858127E-09
   665.651  0.707701  5.246698E-09
   674.589  0.709240  4.689428E-09
   683.527  0.710961  4.217252E-09
   692.465  0.712651  3.836633E-09
   701.403  0.714145  3.519436E-09
   710.341  0.715964  3.202361E-09
   719.279  0.718067  2.938761E-09
   728.216  0.720192  2.731528E-09
   737.154  0.722039  2.576553E-09
   746.092  0.723579  2.455019E-09
   755.030  0.724915  2.355677E-09
   763.968  0.726080  2.268273E-09
   772.906  0.727085  2.185358E-09
   781.844  0.728279  2.103150E-09
   790.782  0.729498  2.031735E-09
   799.719  0.730705  1.970430E-09
   808.657  0.731733  1.920897E-09
   817.595  0.732691  1.877827E-09
   826.533  0.733601  1.839569E-09
   835.471  0.734445  1.807029E-09
   844.409  0.735246  1.779110E-09
   853.347  0.736021  1.754451E-09
   862.285  0.736749  1.734271E-09
   871.222  0.737442  1.717652E-09
   880.160  0.738114  1.703540E-09
   889.098  0.738732  1.693288E-09
   898.036  0.739329  1.684452E-09
   906.974  0.739905  1.675981E-09
   915.912  0.740458  1.668960E-09
   924.850  0.741012  1.663180E-09
   933.788  0.741566  1.660584E-09
   942.725  0.742096  1.660483E-09
   951.663  0.742610  1.662578E-09
   960.601  0.743097  1.667706E-09
   969.539  0.743578  1.674025E-09
   978.477  0.744038  1.682632E-09
   987.415  0.744498  1.692830E-09
   996.353  0.744958  1.704876E-09
   1005.29  0.745443  1.717561E-09
   1014.23  0.745944  1.730882E-09
   1023.17  0.746552  1.748650E-09
   1032.10  0.747185  1.768306E-09
   1041.04  0.747729  1.796056E-09
   1049.98  0.748268  1.825753E-09
   1058.92  0.748777  1.860421E-09
   1067.86  0.749274  1.897984E-09
   1076.79  0.749725  1.940302E-09
   1085.73  0.750163  1.985949E-09
   1094.67  0.750570  2.039326E-09
   1103.61  0.750964  2.096178E-09
   1112.55  0.751331  2.160187E-09
   1121.48  0.751685  2.228798E-09
   1130.42  0.752014  2.302810E-09
   1139.36  0.752332  2.382457E-09
   1148.30  0.752628  2.468775E-09
   1157.23  0.752916  2.561583E-09
   1166.17  0.753182  2.662243E-09
   1175.11  0.753442  2.771041E-09
   1184.05  0.753680  2.889304E-09
   1192.99  0.753915  3.016507E-09
   1201.92  0.754123  3.156702E-09
   1210.86  0.754331  3.308066E-09
   1219.80  0.754516  3.474337E-09
   1228.74  0.754696  3.656148E-09
   1237.68  0.754858  3.857198E-09
   1246.61  0.755010  4.079205E-09
   1255.55  0.755149  4.324125E-09
   1264.49  0.755273  4.599011E-09
   1273.43  0.755392  4.904220E-09
   1282.36  0.755492  5.251138E-09
   1291.30  0.755591  5.643022E-09
   1300.24  0.755671  6.091689E-09
   1309.18  0.755748  6.610667E-09
   1318.12  0.755812  7.215475E-09
   1327.05  0.755866  7.933536E-09
   1335.99  0.755914  8.798087E-09
   1344.93  0.755948  9.852626E-09
   1353.87  0.755979  1.116892E-08
   1362.81  0.755997  1.285322E-08
   1371.74  0.756009  1.504789E-08
   1380.68  0.756013  1.791074E-08
   1389.62  0.756003  2.165619E-08
   1398.56  0.755990  2.628730E-08
   1407.49  0.755963  3.163390E-08
   1416.43  0.755930  3.742597E-08
   1425.37  0.755891  4.346849E-08
   1434.31  0.755840  4.971856E-08
   1443.25  0.755785  5.608938E-08
   1452.18  0.755719  6.263976E-08
   1461.12  0.755646  6.933737E-08
   1470.06  0.755569  7.620068E-08
   1479.00  0.755480  8.335574E-08
   1487.94  0.755387  9.068553E-08
   1496.87  0.755288  9.834449E-08
   1505.81  0.755183  1.062892E-07
   1514.75  0.755074  1.145610E-07
   1523.69  0.754951  1.231850E-07
   1532.63  0.754820  1.322428E-07
   1541.56  0.754684  1.416693E-07
   1550.50  0.754533  1.516159E-07
   1559.44  0.754377  1.619909E-07
   1568.38  0.754214  1.729080E-07
   1577.31  0.754040  1.843964E-07
   1586.25  0.753860  1.964057E-07
   1595.19  0.753672  2.090716E-07
   1604.13  0.753472  2.224532E-07
   1613.07  0.753266  2.365084E-07
   1622.00  0.753052  2.512646E-07
   1630.94  0.752827  2.668978E-07
   1639.88  0.752597  2.833341E-07
   1648.82  0.752356  3.006628E-07
   1657.76  0.752105  3.190630E-07
   1666.69  0.751847  3.383809E-07
   1675.63  0.751581  3.587541E-07
   1684.57  0.751305  3.804171E-07
   1693.51  0.751023  4.031860E-07
   1702.44  0.750733  4.272339E-07
   1711.38  0.750436  4.528248E-07
   1720.32  0.750131  4.797421E-07
   1729.26  0.749846  5.081561E-07
   1738.20  0.749582  5.386178E-07
   1747.13  0.749311  5.707307E-07
   1756.07  0.749032  6.046946E-07
   1765.01  0.748744  6.416013E-07
   1773.95  0.748448  6.805871E-07
   1782.89  0.748145  7.217467E-07
   1791.82  0.747832  7.672778E-07
   1800.76  0.747510  8.157534E-07
   1809.70  0.747181  8.667939E-07
   1818.64  0.746827  9.363829E-07
   1827.58  0.746464  1.023337E-06
   1836.51  0.746093  1.105348E-06
   1845.45  0.745703  9.955313E-07
   1854.39  0.745301  1.041317E-06
   1863.33  0.744889  1.091411E-06
   1872.26  0.744464  1.148150E-06
   1881.20  0.744021  1.208553E-06
   1890.14  0.743569  1.272530E-06
   1899.08  0.743107  1.344924E-06
   1908.02  0.742625  1.422459E-06
   1916.95  0.742133  1.504976E-06
   1925.89  0.741630  1.593817E-06
   1934.83  0.741110  1.689610E-06
   1943.77  0.740574  1.791899E-06
   1952.71  0.740027  1.901143E-06
   1961.64  0.739468  2.018696E-06
   1970.58  0.738885  2.144649E-06
   1979.52  0.738291  2.279194E-06
   1988.46  0.737684  2.423292E-06
   1997.39  0.737044  2.577840E-06
   2006.33  0.736369  2.742990E-06
   2015.27  0.735681  2.919648E-06
   2024.21  0.734980  3.108897E-06
   2033.15  0.734332  3.311863E-06
   2042.08  0.733678  3.529070E-06
   2051.02  0.733010  3.761518E-06
   2059.96  0.732325  4.011449E-06
   2068.90  0.731619  4.281502E-06
   2077.84  0.730897  4.570995E-06
   2086.77  0.730159  4.881729E-06
   2095.71  0.729399  5.216488E-06
   2104.65  0.728616  5.577297E-06
   2113.59  0.727816  5.964794E-06
   2122.53  0.726998  6.381683E-06
   2131.46  0.726154  6.831806E-06
   2140.40  0.725287  7.316936E-06
   2149.34  0.724401  7.838915E-06
   2158.28  0.723495  8.401109E-06
   2167.21  0.722564  9.010426E-06
   2176.15  0.721612  9.667367E-06
   2185.09  0.720638  1.037594E-05
   2194.03  0.719641  1.114023E-05
   2202.97  0.718614  1.197156E-05
   2211.90  0.717563  1.286969E-05
   2220.84  0.716487  1.384006E-05
   2229.78  0.715387  1.488894E-05
   2238.72  0.714245  1.603250E-05
   2247.66  0.713076  1.727045E-05
   2256.59  0.711880  1.861101E-05
   2265.53  0.710655  2.006343E-05
   2274.47  0.709386  2.165063E-05
   2283.41  0.708087  2.337340E-05
   2292.34  0.706755  2.524321E-05
   2301.28  0.705390  2.727448E-05
   2310.22  0.703977  2.949940E-05
   2319.16  0.702526  3.192294E-05
   2328.10  0.701038  3.456046E-05
   2337.03  0.699511  3.743341E-05
   2345.97  0.697932  4.058413E-05
   2354.91  0.696305  4.403138E-05
   2363.85  0.694636  4.779404E-05
   2372.79  0.692921  5.190397E-05
   2381.72  0.691149  5.641686E-05
   2390.66  0.689315  6.138162E-05
   2399.60  0.687429  6.681820E-05
   2408.54  0.685491  7.277526E-05
   2417.47  0.683493  7.931769E-05
   2426.41  0.681414  8.656269E-05
   2435.35  0.679273  9.452281E-05
   2444.29  0.677069  1.032763E-04
   2453.23  0.674799  1.129080E-04
   2462.16  0.672431  1.236129E-04
   2471.10  0.669981  1.354504E-04
   2480.04  0.667455  1.485160E-04
   2488.98  0.664848  1.629506E-04
   2497.92  0.662142  1.789752E-04
   2506.85  0.659318  1.968608E-04
   2515.79  0.656399  2.166852E-04
   2524.73  0.653381  2.386804E-04
   2533.67  0.650260  2.631000E-04
   2542.61  0.646981  2.905514E-04
   2551.54  0.643574  3.211946E-04
   2560.48  0.640043  3.553492E-04
   2569.42  0.636382  3.934479E-04
   2578.36  0.632567  4.361409E-04
   2587.29  0.628545  4.844540E-04
   2596.23  0.624367  5.385600E-04
   2605.17  0.620023  5.992484E-04
   2614.11  0.615504  6.673365E-04
   2623.05  0.610740  7.446411E-04
   2631.98  0.605730  8.323165E-04
   2640.92  0.600506  9.311856E-04
   2649.86  0.595055  1.042772E-03
   2658.80  0.589363  1.168846E-03
   2667.74  0.583296  1.313836E-03
   2676.67  0.576926  1.478793E-03
   2685.61  0.570258  1.666151E-03
   2694.55  0.563276  1.879000E-03
   2703.49  0.555956  2.121296E-03
   2712.42  0.548079  2.403390E-03
   2721.36  0.539813  2.725490E-03
   2730.30  0.531136  3.093743E-03
   2739.24  0.522027  3.514854E-03
   2748.18  0.512426  3.998282E-03
   2757.11  0.502078  4.565102E-03
   2766.05  0.491211  5.215683E-03
   2774.99  0.479809  5.962903E-03
   2783.93  0.467856  6.820133E-03
   2792.87  0.455274  7.808694E-03
   2801.80  0.441733  8.972580E-03
   2810.74  0.427611  1.030966E-02
   2819.68  0.412932  1.184224E-02
   2828.62  0.397735  1.359445E-02
   2837.56  0.382008  1.559977E-02
   2846.49  0.365305  1.795721E-02
   2855.43  0.348330  2.063272E-02
   2864.37  0.331233  2.364969E-02
   2873.31  0.314197  2.702985E-02
   2882.24  0.297437  3.078882E-02
   2891.18  0.280389  3.512677E-02
   2900.12  0.264169  3.988073E-02
   2909.06  0.249079  4.502902E-02
   2918.00  0.235371  5.053632E-02
   2926.93  0.223250  5.635448E-02
   2935.87  0.212363  6.270461E-02
   2944.81  0.203317  6.934214E-02
   2953.75  0.196258  7.610103E-02
   2962.69  0.191033  8.290062E-02
   2971.62  0.187408  8.967926E-02
   2980.56  0.184969  9.664156E-02
   2989.50  0.183458  0.103778
   2998.44  0.182623  0.110773
   3007.37  0.182055  0.117631
   3016.31  0.181403  0.124371
   3025.25  0.180345  0.131097
   3034.19  0.178205  0.138592
   3043.13  0.175060  0.146101
   3052.06  0.170809  0.153688
   3061.00  0.165428  0.161410
   3069.94  0.158976  0.169302
   3078.88  0.149874  0.178719
   3087.82  0.138441  0.189366
   3096.75  0.126101  0.200353
   3105.69  0.113274  0.211649
   3114.63  0.100402  0.223173
   3123.57  8.601687E-02  0.236374
   3132.51  3.886531E-02  0.288614
   3141.44  2.919785E-02  0.327604
   3150.38  3.223085E-02  0.356202
   3159.32  2.972012E-02  0.381434
   3168.26  2.105662E-02  0.406056
   3177.19  2.720339E-02  4.540687E-02
   3186.13  3.220570E-02  4.157273E-02
   3195.07  3.773386E-02  3.771356E-02
   3204.01  4.399698E-02  3.385008E-02
   3212.95  5.138303E-02  3.000581E-02
   3221.88  6.040644E-02  2.621540E-02
   3230.82  6.411218E-02  2.521973E-02
   3239.76  6.402157E-02  2.577518E-02
   3248.70  6.392767E-02  2.634173E-02
   3257.64  6.383104E-02  2.691906E-02
   3266.57  6.373164E-02  2.750736E-02
   3275.51  6.362944E-02  2.810636E-02
   3284.45  5.795880E-02  3.145198E-02
   3293.39  5.206840E-02  3.561521E-02
   3302.32  4.715385E-02  3.991536E-02
   3311.26  4.290701E-02  4.432674E-02
   3320.20  3.906269E-02  4.883270E-02
   3329.14  3.543311E-02  5.341982E-02
   3338.08  3.983762E-02  1.844998E-02
   3347.01  4.402245E-02  1.720606E-02
   3355.95  4.852017E-02  1.597529E-02
   3364.89  5.337919E-02  1.476227E-02
   3373.83  5.866608E-02  1.357097E-02
   3382.77  6.446185E-02  1.240587E-02
   3391.70  6.559441E-02  1.242684E-02
   3400.64  6.580774E-02  1.266651E-02
   3409.58  6.601618E-02  1.291094E-02
   3418.52  6.622016E-02  1.316004E-02
   3427.45  6.641963E-02  1.341420E-02
   3436.39  6.661467E-02  1.367335E-02
   3445.33  6.648655E-02  1.402084E-02
   3454.27  6.623695E-02  1.440857E-02
   3463.21  6.599043E-02  1.480502E-02
   3472.14  6.574692E-02  1.521030E-02
   3481.08  6.550659E-02  1.562450E-02
   3490.02  6.526940E-02  1.604769E-02
   3498.96  6.489002E-02  1.652514E-02
   3507.90  6.437400E-02  1.705963E-02
   3516.83  6.387057E-02  1.760615E-02
   3525.77  6.337924E-02  1.816490E-02
   3534.71  6.289969E-02  1.873630E-02
   3543.65  6.243202E-02  1.931986E-02
   3552.59  6.160244E-02  2.005871E-02
   3561.52  5.910907E-02  2.150086E-02
   3570.46  5.674476E-02  2.298970E-02
   3579.40  5.448671E-02  2.452223E-02
   3588.34  5.230992E-02  2.609865E-02
   3597.27  5.019514E-02  2.771758E-02
   3606.21  5.165376E-02  1.816124E-02
   3615.15  5.582872E-02  1.706356E-02
   3624.09  5.629929E-02  1.725067E-02
   3633.03  5.676721E-02  1.744057E-02
   3641.96  5.723190E-02  1.763339E-02
   3650.90  5.769374E-02  1.782908E-02
   3659.84  5.815266E-02  1.802772E-02
   3668.78  5.846523E-02  1.827978E-02
   3677.72  5.826556E-02  1.871754E-02
   3686.65  5.806604E-02  1.916317E-02
   3695.59  5.786603E-02  1.961670E-02
   3704.53  5.766548E-02  2.007822E-02
   3713.47  5.746351E-02  2.054800E-02
   3722.40  5.726106E-02  2.102560E-02
   3731.34  5.699379E-02  2.153884E-02
   3740.28  5.667982E-02  2.208111E-02
   3749.22  5.636491E-02  2.263245E-02
   3758.16  5.604807E-02  2.319355E-02
   3767.09  5.572951E-02  2.376384E-02
   3776.03  5.540799E-02  2.434397E-02
   3784.97  5.508386E-02  2.493339E-02
   3793.91  5.470732E-02  2.555641E-02
   3802.85  5.431823E-02  2.619390E-02
   3811.78  5.392476E-02  2.684217E-02
   3820.72  5.352667E-02  2.750088E-02
   3829.66  5.312394E-02  2.816970E-02
   3838.60  5.271546E-02  2.884938E-02
   3847.54  5.230132E-02  2.953968E-02
   3856.47  5.184330E-02  3.026194E-02
   3865.41  5.137847E-02  3.099560E-02
   3874.35  5.090717E-02  3.174049E-02
   3883.29  5.042910E-02  3.249665E-02
   3892.22  4.994422E-02  3.326413E-02
   3901.16  4.945228E-02  3.404290E-02
   3910.10  4.895271E-02  3.483358E-02
   3919.04  4.841715E-02  3.565384E-02
   3927.98  4.787491E-02  3.648598E-02
   3936.91  4.732605E-02  3.732999E-02
   3945.85  4.677090E-02  3.818597E-02
   3954.79  4.620972E-02  3.905384E-02
   3963.73  4.564307E-02  3.993427E-02
   3972.67  4.507133E-02  4.082622E-02
   3981.60  4.447361E-02  4.174629E-02
   3990.54  4.387099E-02  4.267952E-02
   3999.48  4.326557E-02  4.362570E-02
   4008.42  4.265777E-02  4.458379E-02
   4017.35  4.204875E-02  4.555474E-02
   4026.29  4.143897E-02  4.653754E-02
   4035.23  4.082959E-02  4.753275E-02
   4044.17  4.020860E-02  4.855313E-02
   4053.11  3.958622E-02  4.959000E-02
   4062.04  3.896734E-02  5.063891E-02
   4070.98  3.835421E-02  5.170085E-02
   4079.92  3.774669E-02  5.277453E-02
   4088.86  3.714739E-02  5.386127E-02
   4097.80  3.655679E-02  5.496027E-02
   4106.73  3.596922E-02  5.607727E-02
   4115.67  3.538663E-02  5.721527E-02
   4124.61  3.481696E-02  5.836529E-02
   4133.55  3.426136E-02  5.952711E-02
   4142.48  3.372016E-02  6.070030E-02
   4151.42  3.319618E-02  6.188575E-02
   4160.36  3.268962E-02  6.308268E-02
   4169.30  3.220129E-02  6.429134E-02
   4178.24  3.172333E-02  6.552383E-02
   4187.17  3.126635E-02  6.676748E-02
   4196.11  3.083121E-02  6.802187E-02
   4205.05  3.041865E-02  6.928681E-02
   4213.99  3.002935E-02  7.056187E-02
   4222.93  2.966385E-02  7.184714E-02
   4231.86  2.932259E-02  7.314213E-02
   4240.80  2.900307E-02  7.445195E-02
   4249.74  2.870586E-02  7.577683E-02
   4258.68  2.843414E-02  7.711067E-02
   4267.62  2.818792E-02  7.845324E-02
   4276.55  2.796778E-02  7.980503E-02
   4285.49  2.777202E-02  8.116426E-02
   4294.43  2.760105E-02  8.253139E-02
   4303.37  2.745431E-02  8.390612E-02
   4312.30  2.732864E-02  8.530135E-02
   4321.24  2.722508E-02  8.670622E-02
   4330.18  2.714397E-02  8.811753E-02
   4339.12  2.708448E-02  8.953662E-02
   4348.06  2.704506E-02  9.096142E-02
   4356.99  2.702477E-02  9.239236E-02
   4365.93  2.702226E-02  9.383024E-02
   4374.87  2.703610E-02  9.527327E-02
   4383.81  2.706276E-02  9.673310E-02
   4392.75  2.710316E-02  9.819779E-02
   4401.68  2.715509E-02  9.966882E-02
   4410.62  2.721758E-02  0.101144
   4419.56  2.728797E-02  0.102625
   4428.50  2.736559E-02  0.104111
   4437.44  2.744733E-02  0.105602
   4446.37  2.753269E-02  0.107099
   4455.31  2.761699E-02  0.108610
   4464.25  2.770054E-02  0.110127
   4473.19  2.778259E-02  0.111647
   4482.12  2.785924E-02  0.113174
   4491.06  2.792975E-02  0.114706
   4500.00  2.799373E-02  0.116242
